U[V]    Abstand[mm]
7.49    0
7.344    0.1068
7.136    0.1530
6.883    0.1552
6.595    0.1232
6.288    0.0725
5.971    0.0120
5.65    -0.0523
5.331    -0.1147
5.022    -0.1674
4.716    -0.2171
4.424    -0.2531
4.146    -0.2754
3.888    -0.2781
3.644    -0.2671
3.415    -0.2413
3.198    -0.2039
2.999    -0.1488
2.811    -0.0829
2.64    0