Abstand[mm]    U[V]
5    7.49
5.25    7.344
5.5    7.136
5.75    6.883
6    6.595
6.25    6.288
6.5    5.971
6.75    5.65
7    5.331
7.25    5.022
7.5    4.716
7.75    4.424
8    4.146
8.25    3.888
8.5    3.644
8.75    3.415
9    3.198
9.25    2.999
9.5    2.811
9.75    2.64
