U[V]    Abstand[mm]
0.4977    0
0.4909    0.1462
0.4796    0.2214
0.4652    0.2484
0.449    0.2476
0.4308    0.2159
0.411    0.1594
0.3908    0.0967
0.371    0.0402
0.35    -0.0348
0.3302    -0.0913
0.311    -0.1385
0.2929    -0.1687
0.2757    -0.1849
0.2587    -0.1981
0.2435    -0.1834
0.229    -0.1578
0.215    -0.1246
0.2028    -0.0634
0.1909    0